date, rr, since start2016-09-22 20:13:07 +0000, 844, 16882016-09-22 20:13:08 +0000, 833, 25212016-09-22 20:13:09 +0000, 810, 33312016-09-22 20:13:10 +0000, 778, 41092016-09-22 20:13:11 +0000, 750, 48592016-09-22 20:13:12 +0000, 731, 55902016-09-22 20:13:13 +0000, 713, 63032016-09-22 20:13:15 +0000, 705, 70082016-09-22 20:13:16 +0000, 705, 77132016-09-22 20:13:17 +0000, 705, 84182016-09-22 20:13:18 +0000, 731, 91492016-09-22 20:13:19 +0000, 740, 98892016-09-22 20:13:20 +0000, 758, 106472016-09-22 20:13:21 +0000, 778, 114252016-09-22 20:13:22 +0000, 789, 122142016-09-22 20:13:23 +0000, 810, 130242016-09-22 20:13:24 +0000, 821, 138452016-09-22 20:13:25 +0000, 844, 146892016-09-22 20:13:26 +0000, 844, 155332016-09-22 20:13:27 +0000, 844, 163772016-09-22 20:13:28 +0000, 844, 172212016-09-22 20:13:29 +0000, 844, 180652016-09-22 20:13:30 +0000, 844, 189092016-09-22 20:13:31 +0000, 869, 197782016-09-22 20:13:32 +0000, 881, 206592016-09-22 20:13:33 +0000, 908, 215672016-09-22 20:13:34 +0000, 908, 224752016-09-22 20:13:35 +0000, 908, 233832016-09-22 20:13:36 +0000, 881, 242642016-09-22 20:13:37 +0000, 856, 251202016-09-22 20:13:38 +0000, 844, 259642016-09-22 20:13:39 +0000, 833, 267972016-09-22 20:13:40 +0000, 833, 276302016-09-22 20:13:41 +0000, 844, 284742016-09-22 20:13:42 +0000, 856, 293302016-09-22 20:13:43 +0000, 869, 301992016-09-22 20:13:44 +0000, 869, 310682016-09-22 20:13:45 +0000, 856, 319242016-09-22 20:13:46 +0000, 844, 327682016-09-22 20:13:47 +0000, 844, 336122016-09-22 20:13:48 +0000, 833, 344452016-09-22 20:13:49 +0000, 833, 352782016-09-22 20:13:50 +0000, 833, 361112016-09-22 20:13:51 +0000, 821, 369322016-09-22 20:13:52 +0000, 821, 377532016-09-22 20:13:53 +0000, 833, 385862016-09-22 20:13:54 +0000, 833, 394192016-09-22 20:13:55 +0000, 833, 402522016-09-22 20:13:57 +0000, 821, 410732016-09-22 20:13:58 +0000, 799, 418722016-09-22 20:13:59 +0000, 789, 426612016-09-22 20:14:00 +0000, 778, 434392016-09-22 20:14:01 +0000, 778, 442172016-09-22 20:14:02 +0000, 778, 449952016-09-22 20:14:03 +0000, 789, 457842016-09-22 20:14:04 +0000, 799, 465832016-09-22 20:14:05 +0000, 810, 473932016-09-22 20:14:06 +0000, 821, 482142016-09-22 20:14:07 +0000, 821, 490352016-09-22 20:14:08 +0000, 821, 498562016-09-22 20:14:09 +0000, 821, 506772016-09-22 20:14:10 +0000, 810, 514872016-09-22 20:14:11 +0000, 810, 522972016-09-22 20:14:12 +0000, 810, 531072016-09-22 20:14:13 +0000, 799, 539062016-09-22 20:14:14 +0000, 778, 546842016-09-22 20:14:15 +0000, 768, 554522016-09-22 20:14:16 +0000, 750, 562022016-09-22 20:14:17 +0000, 740, 569422016-09-22 20:14:18 +0000, 731, 576732016-09-22 20:14:19 +0000, 731, 584042016-09-22 20:14:20 +0000, 740, 591442016-09-22 20:14:21 +0000, 750, 598942016-09-22 20:14:22 +0000, 768, 606622016-09-22 20:14:23 +0000, 789, 614512016-09-22 20:14:24 +0000, 810, 622612016-09-22 20:14:25 +0000, 833, 630942016-09-22 20:14:26 +0000, 844, 639382016-09-22 20:14:27 +0000, 844, 647822016-09-22 20:14:28 +0000, 844, 656262016-09-22 20:14:29 +0000, 833, 664592016-09-22 20:14:30 +0000, 833, 672922016-09-22 20:14:31 +0000, 833, 681252016-09-22 20:14:32 +0000, 844, 689692016-09-22 20:14:33 +0000, 869, 698382016-09-22 20:14:34 +0000, 881, 707192016-09-22 20:14:35 +0000, 908, 716272016-09-22 20:14:36 +0000, 922, 725492016-09-22 20:14:37 +0000, 922, 734712016-09-22 20:14:39 +0000, 908, 743792016-09-22 20:14:40 +0000, 895, 752742016-09-22 20:14:41 +0000, 881, 761552016-09-22 20:14:42 +0000, 869, 770242016-09-22 20:14:43 +0000, 856, 778802016-09-22 20:14:44 +0000, 844, 787242016-09-22 20:14:45 +0000, 844, 795682016-09-22 20:14:46 +0000, 844, 804122016-09-22 20:14:47 +0000, 856, 812682016-09-22 20:14:48 +0000, 881, 821492016-09-22 20:14:49 +0000, 895, 830442016-09-22 20:14:50 +0000, 908, 839522016-09-22 20:14:51 +0000, 908, 848602016-09-22 20:14:52 +0000, 895, 857552016-09-22 20:14:53 +0000, 881, 866362016-09-22 20:14:54 +0000, 869, 875052016-09-22 20:14:55 +0000, 844, 883492016-09-22 20:14:56 +0000, 844, 891932016-09-22 20:14:57 +0000, 844, 900372016-09-22 20:14:58 +0000, 833, 908702016-09-22 20:14:59 +0000, 821, 916912016-09-22 20:15:00 +0000, 799, 924902016-09-22 20:15:01 +0000, 799, 932892016-09-22 20:15:02 +0000, 799, 940882016-09-22 20:15:03 +0000, 810, 948982016-09-22 20:15:04 +0000, 821, 957192016-09-22 20:15:05 +0000, 833, 965522016-09-22 20:15:06 +0000, 833, 973852016-09-22 20:15:07 +0000, 821, 982062016-09-22 20:15:08 +0000, 821, 990272016-09-22 20:15:09 +0000, 821, 998482016-09-22 20:15:10 +0000, 799, 1006472016-09-22 20:15:11 +0000, 789, 1014362016-09-22 20:15:12 +0000, 778, 1022142016-09-22 20:15:13 +0000, 778, 1029922016-09-22 20:15:14 +0000, 789, 1037812016-09-22 20:15:15 +0000, 799, 1045802016-09-22 20:15:16 +0000, 799, 1053792016-09-22 20:15:17 +0000, 799, 1061782016-09-22 20:15:18 +0000, 778, 1069562016-09-22 20:15:19 +0000, 768, 1077242016-09-22 20:15:21 +0000, 750, 1084742016-09-22 20:15:22 +0000, 750, 1092242016-09-22 20:15:23 +0000, 750, 1099742016-09-22 20:15:24 +0000, 750, 1107242016-09-22 20:15:25 +0000, 768, 1114922016-09-22 20:15:26 +0000, 778, 1122702016-09-22 20:15:27 +0000, 789, 1130592016-09-22 20:15:28 +0000, 789, 1138482016-09-22 20:15:29 +0000, 789, 1146372016-09-22 20:15:30 +0000, 789, 1154262016-09-22 20:15:31 +0000, 750, 1161762016-09-22 20:15:32 +0000, 750, 1169262016-09-22 20:15:33 +0000, 750, 1176762016-09-22 20:15:34 +0000, 758, 1184342016-09-22 20:15:35 +0000, 768, 1192022016-09-22 20:15:36 +0000, 768, 1199702016-09-22 20:15:37 +0000, 750, 1207202016-09-22 20:15:38 +0000, 740, 1214602016-09-22 20:15:39 +0000, 722, 1221822016-09-22 20:15:40 +0000, 722, 1229042016-09-22 20:15:41 +0000, 722, 1236262016-09-22 20:15:42 +0000, 740, 1243662016-09-22 20:15:43 +0000, 750, 1251162016-09-22 20:15:44 +0000, 750, 1258662016-09-22 20:15:45 +0000, 740, 1266062016-09-22 20:15:46 +0000, 722, 1273282016-09-22 20:15:47 +0000, 713, 1280412016-09-22 20:15:48 +0000, 697, 1287382016-09-22 20:15:49 +0000, 697, 1294352016-09-22 20:15:50 +0000, 705, 1301402016-09-22 20:15:51 +0000, 713, 1308532016-09-22 20:15:52 +0000, 722, 1315752016-09-22 20:15:53 +0000, 731, 1323062016-09-22 20:15:54 +0000, 722, 1330282016-09-22 20:15:55 +0000, 705, 1337332016-09-22 20:15:56 +0000, 697, 1344302016-09-22 20:15:57 +0000, 681, 1351112016-09-22 20:15:58 +0000, 681, 1357922016-09-22 20:15:59 +0000, 681, 1364732016-09-22 20:16:00 +0000, 689, 1371622016-09-22 20:16:01 +0000, 705, 1378672016-09-22 20:16:03 +0000, 705, 1385722016-09-22 20:16:04 +0000, 705, 1392772016-09-22 20:16:05 +0000, 697, 1399742016-09-22 20:16:06 +0000, 681, 1406552016-09-22 20:16:07 +0000, 666, 1413212016-09-22 20:16:08 +0000, 659, 1419802016-09-22 20:16:09 +0000, 651, 1426312016-09-22 20:16:10 +0000, 651, 1432822016-09-22 20:16:11 +0000, 659, 1439412016-09-22 20:16:12 +0000, 673, 1446142016-09-22 20:16:13 +0000, 681, 1452952016-09-22 20:16:14 +0000, 689, 1459842016-09-22 20:16:15 +0000, 697, 1466812016-09-22 20:16:16 +0000, 689, 1473702016-09-22 20:16:17 +0000, 689, 1480592016-09-22 20:16:18 +0000, 689, 1487482016-09-22 20:16:19 +0000, 689, 1494372016-09-22 20:16:20 +0000, 705, 1501422016-09-22 20:16:21 +0000, 713, 1508552016-09-22 20:16:22 +0000, 722, 1515772016-09-22 20:16:23 +0000, 722, 1522992016-09-22 20:16:24 +0000, 722, 1530212016-09-22 20:16:25 +0000, 713, 1537342016-09-22 20:16:26 +0000, 697, 1544312016-09-22 20:16:27 +0000, 697, 1551282016-09-22 20:16:28 +0000, 697, 1558252016-09-22 20:16:29 +0000, 705, 1565302016-09-22 20:16:30 +0000, 722, 1572522016-09-22 20:16:31 +0000, 740, 1579922016-09-22 20:16:32 +0000, 750, 1587422016-09-22 20:16:33 +0000, 740, 1594822016-09-22 20:16:34 +0000, 722, 1602042016-09-22 20:16:35 +0000, 705, 1609092016-09-22 20:16:36 +0000, 689, 1615982016-09-22 20:16:37 +0000, 681, 1622792016-09-22 20:16:38 +0000, 689, 1629682016-09-22 20:16:39 +0000, 689, 1636572016-09-22 20:16:40 +0000, 705, 1643622016-09-22 20:16:41 +0000, 713, 1650752016-09-22 20:16:42 +0000, 731, 1658062016-09-22 20:16:43 +0000, 731, 1665372016-09-22 20:16:45 +0000, 731, 1672682016-09-22 20:16:46 +0000, 722, 1679902016-09-22 20:16:47 +0000, 705, 1686952016-09-22 20:16:48 +0000, 705, 1694002016-09-22 20:16:49 +0000, 705, 1701052016-09-22 20:16:50 +0000, 713, 1708182016-09-22 20:16:51 +0000, 722, 1715402016-09-22 20:16:52 +0000, 740, 1722802016-09-22 20:16:53 +0000, 750, 1730302016-09-22 20:16:54 +0000, 758, 1737882016-09-22 20:16:55 +0000, 750, 1745382016-09-22 20:16:56 +0000, 740, 1752782016-09-22 20:16:57 +0000, 722, 1760002016-09-22 20:16:58 +0000, 713, 1767132016-09-22 20:16:59 +0000, 713, 1774262016-09-22 20:17:00 +0000, 713, 1781392016-09-22 20:17:01 +0000, 731, 1788702016-09-22 20:17:02 +0000, 740, 1796102016-09-22 20:17:03 +0000, 758, 1803682016-09-22 20:17:04 +0000, 768, 1811362016-09-22 20:17:05 +0000, 750, 1818862016-09-22 20:17:06 +0000, 731, 1826172016-09-22 20:17:07 +0000, 722, 1833392016-09-22 20:17:08 +0000, 713, 1840522016-09-22 20:17:09 +0000, 722, 1847742016-09-22 20:17:10 +0000, 731, 1855052016-09-22 20:17:11 +0000, 740, 1862452016-09-22 20:17:12 +0000, 758, 1870032016-09-22 20:17:13 +0000, 768, 1877712016-09-22 20:17:14 +0000, 768, 1885392016-09-22 20:17:15 +0000, 750, 1892892016-09-22 20:17:16 +0000, 740, 1900292016-09-22 20:17:17 +0000, 731, 1907602016-09-22 20:17:18 +0000, 722, 1914822016-09-22 20:17:19 +0000, 731, 1922132016-09-22 20:17:20 +0000, 740, 1929532016-09-22 20:17:21 +0000, 750, 1937032016-09-22 20:17:22 +0000, 750, 1944532016-09-22 20:17:23 +0000, 750, 1952032016-09-22 20:17:24 +0000, 750, 1959532016-09-22 20:17:25 +0000, 758, 1967112016-09-22 20:17:27 +0000, 758, 1974692016-09-22 20:17:28 +0000, 768, 1982372016-09-22 20:17:29 +0000, 778, 1990152016-09-22 20:17:30 +0000, 789, 1998042016-09-22 20:17:31 +0000, 799, 2006032016-09-22 20:17:32 +0000, 821, 2014242016-09-22 20:17:33 +0000, 833, 2022572016-09-22 20:17:34 +0000, 833, 2030902016-09-22 20:17:35 +0000, 821, 2039112016-09-22 20:17:36 +0000, 810, 2047212016-09-22 20:17:37 +0000, 799, 2055202016-09-22 20:17:38 +0000, 810, 2063302016-09-22 20:17:39 +0000, 810, 2071402016-09-22 20:17:40 +0000, 810, 2079502016-09-22 20:17:41 +0000, 799, 2087492016-09-22 20:17:42 +0000, 789, 2095382016-09-22 20:17:43 +0000, 799, 2103372016-09-22 20:17:44 +0000, 799, 2111362016-09-22 20:17:45 +0000, 810, 2119462016-09-22 20:17:46 +0000, 810, 2127562016-09-22 20:17:47 +0000, 799, 2135552016-09-22 20:17:48 +0000, 789, 2143442016-09-22 20:17:49 +0000, 778, 2151222016-09-22 20:17:50 +0000, 768, 2158902016-09-22 20:17:51 +0000, 758, 2166482016-09-22 20:17:52 +0000, 768, 2174162016-09-22 20:17:53 +0000, 768, 2181842016-09-22 20:17:54 +0000, 778, 2189622016-09-22 20:17:55 +0000, 799, 2197612016-09-22 20:17:56 +0000, 810, 2205712016-09-22 20:17:57 +0000, 833, 2214042016-09-22 20:17:58 +0000, 833, 2222372016-09-22 20:17:59 +0000, 821, 2230582016-09-22 20:18:00 +0000, 799, 2238572016-09-22 20:18:01 +0000, 789, 2246462016-09-22 20:18:02 +0000, 768, 2254142016-09-22 20:18:03 +0000, 768, 2261822016-09-22 20:18:04 +0000, 768, 2269502016-09-22 20:18:05 +0000, 768, 2277182016-09-22 20:18:06 +0000, 778, 2284962016-09-22 20:18:07 +0000, 778, 2292742016-09-22 20:18:09 +0000, 778, 2300522016-09-22 20:18:10 +0000, 778, 2308302016-09-22 20:18:11 +0000, 778, 2316082016-09-22 20:18:12 +0000, 789, 2323972016-09-22 20:18:13 +0000, 789, 2331862016-09-22 20:18:14 +0000, 799, 2339852016-09-22 20:18:15 +0000, 789, 2347742016-09-22 20:18:16 +0000, 778, 2355522016-09-22 20:18:17 +0000, 778, 2363302016-09-22 20:18:18 +0000, 778, 2371082016-09-22 20:18:19 +0000, 789, 2378972016-09-22 20:18:20 +0000, 810, 2387072016-09-22 20:18:21 +0000, 810, 2395172016-09-22 20:18:22 +0000, 810, 2403272016-09-22 20:18:23 +0000, 799, 2411262016-09-22 20:18:24 +0000, 799, 2419252016-09-22 20:18:25 +0000, 799, 2427242016-09-22 20:18:26 +0000, 799, 2435232016-09-22 20:18:27 +0000, 810, 2443332016-09-22 20:18:28 +0000, 810, 2451432016-09-22 20:18:29 +0000, 810, 2459532016-09-22 20:18:30 +0000, 810, 2467632016-09-22 20:18:31 +0000, 799, 2475622016-09-22 20:18:32 +0000, 810, 2483722016-09-22 20:18:33 +0000, 810, 2491822016-09-22 20:18:34 +0000, 810, 2499922016-09-22 20:18:35 +0000, 799, 2507912016-09-22 20:18:36 +0000, 799, 2515902016-09-22 20:18:37 +0000, 799, 2523892016-09-22 20:18:38 +0000, 799, 2531882016-09-22 20:18:39 +0000, 799, 2539872016-09-22 20:18:40 +0000, 799, 2547862016-09-22 20:18:41 +0000, 799, 2555852016-09-22 20:18:42 +0000, 799, 2563842016-09-22 20:18:43 +0000, 789, 2571732016-09-22 20:18:44 +0000, 789, 2579622016-09-22 20:18:45 +0000, 778, 2587402016-09-22 20:18:46 +0000, 778, 2595182016-09-22 20:18:47 +0000, 778, 2602962016-09-22 20:18:48 +0000, 778, 2610742016-09-22 20:18:49 +0000, 778, 2618522016-09-22 20:18:51 +0000, 778, 2626302016-09-22 20:18:52 +0000, 778, 2634082016-09-22 20:18:53 +0000, 768, 2641762016-09-22 20:18:54 +0000, 758, 2649342016-09-22 20:18:55 +0000, 750, 2656842016-09-22 20:18:56 +0000, 740, 2664242016-09-22 20:18:57 +0000, 722, 2671462016-09-22 20:18:58 +0000, 722, 2678682016-09-22 20:18:59 +0000, 731, 2685992016-09-22 20:19:00 +0000, 740, 2693392016-09-22 20:19:01 +0000, 750, 2700892016-09-22 20:19:02 +0000, 758, 2708472016-09-22 20:19:03 +0000, 758, 2716052016-09-22 20:19:04 +0000, 768, 2723732016-09-22 20:19:05 +0000, 778, 2731512016-09-22 20:19:06 +0000, 789, 2739402016-09-22 20:19:07 +0000, 799, 2747392016-09-22 20:19:08 +0000, 810, 2755492016-09-22 20:19:09 +0000, 810, 2763592016-09-22 20:19:10 +0000, 810, 2771692016-09-22 20:19:11 +0000, 810, 2779792016-09-22 20:19:12 +0000, 810, 2787892016-09-22 20:19:13 +0000, 810, 2795992016-09-22 20:19:14 +0000, 810, 2804092016-09-22 20:19:15 +0000, 810, 2812192016-09-22 20:19:16 +0000, 799, 2820182016-09-22 20:19:17 +0000, 810, 2828282016-09-22 20:19:18 +0000, 810, 2836382016-09-22 20:19:19 +0000, 810, 2844482016-09-22 20:19:20 +0000, 810, 285258