date, rr, since start2016-09-22 20:42:20 +0000,882,17642016-09-22 20:42:20 +0000,882,26462016-09-22 20:42:21 +0000,882,35282016-09-22 20:42:21 +0000,882,44102016-09-22 20:42:22 +0000,869,52792016-09-22 20:42:23 +0000,869,61482016-09-22 20:42:24 +0000,882,70302016-09-22 20:42:25 +0000,882,79122016-09-22 20:42:26 +0000,882,87942016-09-22 20:42:27 +0000,882,96762016-09-22 20:42:28 +0000,895,105712016-09-22 20:42:29 +0000,895,114662016-09-22 20:42:29 +0000,895,123612016-09-22 20:42:30 +0000,895,132562016-09-22 20:42:31 +0000,895,141512016-09-22 20:42:32 +0000,895,150462016-09-22 20:42:33 +0000,895,159412016-09-22 20:42:34 +0000,909,168502016-09-22 20:42:35 +0000,922,177722016-09-22 20:42:36 +0000,937,187092016-09-22 20:42:37 +0000,937,196462016-09-22 20:42:38 +0000,937,205832016-09-22 20:42:39 +0000,937,215202016-09-22 20:42:40 +0000,922,224422016-09-22 20:42:40 +0000,922,233642016-09-22 20:42:41 +0000,937,243012016-09-22 20:42:42 +0000,952,252532016-09-22 20:42:43 +0000,952,262052016-09-22 20:42:44 +0000,952,271572016-09-22 20:42:45 +0000,967,281242016-09-22 20:42:46 +0000,983,291072016-09-22 20:42:47 +0000,983,300902016-09-22 20:42:48 +0000,967,310572016-09-22 20:42:49 +0000,967,320242016-09-22 20:42:51 +0000,967,329912016-09-22 20:42:52 +0000,967,339582016-09-22 20:42:53 +0000,967,349252016-09-22 20:42:54 +0000,983,359082016-09-22 20:42:55 +0000,983,368912016-09-22 20:42:56 +0000,983,378742016-09-22 20:42:57 +0000,967,388412016-09-22 20:42:58 +0000,967,398082016-09-22 20:42:59 +0000,967,407752016-09-22 20:43:00 +0000,967,417422016-09-22 20:43:01 +0000,937,426792016-09-22 20:43:02 +0000,937,436162016-09-22 20:43:03 +0000,937,445532016-09-22 20:43:04 +0000,937,454902016-09-22 20:43:05 +0000,937,464272016-09-22 20:43:05 +0000,937,473642016-09-22 20:43:06 +0000,922,482862016-09-22 20:43:07 +0000,922,492082016-09-22 20:43:08 +0000,922,501302016-09-22 20:43:10 +0000,937,510672016-09-22 20:43:12 +0000,922,519892016-09-22 20:43:13 +0000,909,528982016-09-22 20:43:15 +0000,937,538352016-09-22 20:43:16 +0000,952,547872016-09-22 20:43:18 +0000,937,557242016-09-22 20:43:19 +0000,937,566612016-09-22 20:43:19 +0000,937,575982016-09-22 20:43:20 +0000,937,585352016-09-22 20:43:21 +0000,952,594872016-09-22 20:43:22 +0000,952,604392016-09-22 20:43:23 +0000,952,613912016-09-22 20:43:24 +0000,952,623432016-09-22 20:43:25 +0000,967,633102016-09-22 20:43:26 +0000,967,642772016-09-22 20:43:27 +0000,952,652292016-09-22 20:43:28 +0000,952,661812016-09-22 20:43:29 +0000,952,671332016-09-22 20:43:30 +0000,952,680852016-09-22 20:43:31 +0000,952,690372016-09-22 20:43:32 +0000,952,699892016-09-22 20:43:33 +0000,952,709412016-09-22 20:43:34 +0000,952,718932016-09-22 20:43:35 +0000,967,728602016-09-22 20:43:36 +0000,952,738122016-09-22 20:43:37 +0000,952,747642016-09-22 20:43:38 +0000,952,757162016-09-22 20:43:38 +0000,967,766832016-09-22 20:43:39 +0000,967,776502016-09-22 20:43:40 +0000,967,786172016-09-22 20:43:40 +0000,967,795842016-09-22 20:43:41 +0000,952,805362016-09-22 20:43:42 +0000,952,814882016-09-22 20:43:43 +0000,952,824402016-09-22 20:43:44 +0000,952,833922016-09-22 20:43:45 +0000,952,843442016-09-22 20:43:46 +0000,937,852812016-09-22 20:43:47 +0000,922,862032016-09-22 20:43:48 +0000,937,871402016-09-22 20:43:49 +0000,937,880772016-09-22 20:43:50 +0000,937,890142016-09-22 20:43:51 +0000,922,899362016-09-22 20:43:52 +0000,922,908582016-09-22 20:43:53 +0000,937,917952016-09-22 20:43:54 +0000,952,927472016-09-22 20:43:55 +0000,967,937142016-09-22 20:43:56 +0000,952,946662016-09-22 20:43:57 +0000,952,956182016-09-22 20:43:57 +0000,952,965702016-09-22 20:43:58 +0000,937,975072016-09-22 20:43:59 +0000,952,984592016-09-22 20:44:00 +0000,952,994112016-09-22 20:44:01 +0000,952,1003632016-09-22 20:44:02 +0000,937,1013002016-09-22 20:44:03 +0000,922,1022222016-09-22 20:44:04 +0000,937,1031592016-09-22 20:44:05 +0000,952,1041112016-09-22 20:44:06 +0000,967,1050782016-09-22 20:44:07 +0000,952,1060302016-09-22 20:44:08 +0000,952,1069822016-09-22 20:44:09 +0000,967,1079492016-09-22 20:44:10 +0000,967,1089162016-09-22 20:44:11 +0000,967,1098832016-09-22 20:44:12 +0000,952,1108352016-09-22 20:44:13 +0000,952,1117872016-09-22 20:44:14 +0000,952,1127392016-09-22 20:44:15 +0000,952,1136912016-09-22 20:44:16 +0000,952,1146432016-09-22 20:44:16 +0000,952,1155952016-09-22 20:44:17 +0000,937,1165322016-09-22 20:44:18 +0000,937,1174692016-09-22 20:44:19 +0000,937,1184062016-09-22 20:44:20 +0000,952,1193582016-09-22 20:44:21 +0000,967,1203252016-09-22 20:44:22 +0000,967,1212922016-09-22 20:44:23 +0000,952,1222442016-09-22 20:44:24 +0000,952,1231962016-09-22 20:44:25 +0000,952,1241482016-09-22 20:44:26 +0000,967,1251152016-09-22 20:44:27 +0000,967,1260822016-09-22 20:44:28 +0000,952,1270342016-09-22 20:44:29 +0000,937,1279712016-09-22 20:44:30 +0000,952,1289232016-09-22 20:44:31 +0000,952,1298752016-09-22 20:44:32 +0000,967,1308422016-09-22 20:44:33 +0000,937,1317792016-09-22 20:44:34 +0000,937,1327162016-09-22 20:44:35 +0000,937,1336532016-09-22 20:44:36 +0000,952,1346052016-09-22 20:44:36 +0000,952,1355572016-09-22 20:44:37 +0000,952,1365092016-09-22 20:44:38 +0000,952,1374612016-09-22 20:44:39 +0000,952,1384132016-09-22 20:44:40 +0000,952,1393652016-09-22 20:44:41 +0000,967,1403322016-09-22 20:44:42 +0000,967,1412992016-09-22 20:44:43 +0000,952,1422512016-09-22 20:44:44 +0000,952,1432032016-09-22 20:44:45 +0000,952,1441552016-09-22 20:44:46 +0000,922,1450772016-09-22 20:44:47 +0000,895,1459722016-09-22 20:44:49 +0000,869,1468412016-09-22 20:44:50 +0000,857,1476982016-09-22 20:44:50 +0000,857,1485552016-09-22 20:44:52 +0000,882,1494372016-09-22 20:44:53 +0000,895,1503322016-09-22 20:44:55 +0000,895,1512272016-09-22 20:44:56 +0000,909,1521362016-09-22 20:44:57 +0000,922,1530582016-09-22 20:44:58 +0000,937,1539952016-09-22 20:44:59 +0000,922,1549172016-09-22 20:45:00 +0000,922,1558392016-09-22 20:45:00 +0000,922,1567612016-09-22 20:45:01 +0000,937,1576982016-09-22 20:45:02 +0000,937,1586352016-09-22 20:45:03 +0000,937,1595722016-09-22 20:45:04 +0000,937,1605092016-09-22 20:45:05 +0000,922,1614312016-09-22 20:45:06 +0000,937,1623682016-09-22 20:45:07 +0000,952,1633202016-09-22 20:45:08 +0000,952,1642722016-09-22 20:45:09 +0000,952,1652242016-09-22 20:45:10 +0000,967,1661912016-09-22 20:45:11 +0000,967,1671582016-09-22 20:45:12 +0000,967,1681252016-09-22 20:45:13 +0000,967,1690922016-09-22 20:45:14 +0000,967,1700592016-09-22 20:45:15 +0000,967,1710262016-09-22 20:45:16 +0000,967,1719932016-09-22 20:45:17 +0000,967,1729602016-09-22 20:45:17 +0000,967,1739272016-09-22 20:45:18 +0000,967,1748942016-09-22 20:45:19 +0000,967,1758612016-09-22 20:45:20 +0000,937,1767982016-09-22 20:45:20 +0000,937,1777352016-09-22 20:45:21 +0000,937,1786722016-09-22 20:45:22 +0000,952,1796242016-09-22 20:45:23 +0000,1034,1806582016-09-22 20:45:24 +0000,1034,1816922016-09-22 20:45:25 +0000,1052,1827442016-09-22 20:45:26 +0000,1016,1837602016-09-22 20:45:27 +0000,1000,1847602016-09-22 20:45:28 +0000,1000,1857602016-09-22 20:45:29 +0000,1016,1867762016-09-22 20:45:31 +0000,1052,1878282016-09-22 20:45:32 +0000,1052,1888802016-09-22 20:45:33 +0000,1000,1898802016-09-22 20:45:34 +0000,1000,1908802016-09-22 20:45:35 +0000,1000,1918802016-09-22 20:45:36 +0000,1000,1928802016-09-22 20:45:37 +0000,1034,1939142016-09-22 20:45:38 +0000,1052,1949662016-09-22 20:45:39 +0000,1052,1960182016-09-22 20:45:40 +0000,1016,1970342016-09-22 20:45:41 +0000,967,1980012016-09-22 20:45:42 +0000,967,1989682016-09-22 20:45:43 +0000,983,1999512016-09-22 20:45:44 +0000,1016,2009672016-09-22 20:45:45 +0000,1034,2020012016-09-22 20:45:46 +0000,1034,2030352016-09-22 20:45:47 +0000,1034,2040692016-09-22 20:45:48 +0000,967,2050362016-09-22 20:45:49 +0000,967,2060032016-09-22 20:45:50 +0000,967,2069702016-09-22 20:45:51 +0000,1000,2079702016-09-22 20:45:52 +0000,1016,2089862016-09-22 20:45:53 +0000,1016,2100022016-09-22 20:45:54 +0000,1016,2110182016-09-22 20:45:55 +0000,967,2119852016-09-22 20:45:56 +0000,937,2129222016-09-22 20:45:57 +0000,922,2138442016-09-22 20:45:57 +0000,922,2147662016-09-22 20:45:58 +0000,922,2156882016-09-22 20:45:59 +0000,937,2166252016-09-22 20:46:00 +0000,952,2175772016-09-22 20:46:01 +0000,952,2185292016-09-22 20:46:02 +0000,952,2194812016-09-22 20:46:03 +0000,922,2204032016-09-22 20:46:04 +0000,909,2213122016-09-22 20:46:05 +0000,922,2222342016-09-22 20:46:06 +0000,922,2231562016-09-22 20:46:07 +0000,922,2240782016-09-22 20:46:08 +0000,909,2249872016-09-22 20:46:09 +0000,869,2258562016-09-22 20:46:09 +0000,869,2267252016-09-22 20:46:10 +0000,857,2275822016-09-22 20:46:11 +0000,857,2284392016-09-22 20:46:12 +0000,857,2292962016-09-22 20:46:13 +0000,869,2301652016-09-22 20:46:14 +0000,869,2310342016-09-22 20:46:15 +0000,857,2318912016-09-22 20:46:15 +0000,857,2327482016-09-22 20:46:16 +0000,833,2335812016-09-22 20:46:17 +0000,822,2344032016-09-22 20:46:18 +0000,822,2352252016-09-22 20:46:19 +0000,822,2360472016-09-22 20:46:20 +0000,857,2369042016-09-22 20:46:20 +0000,857,2377612016-09-22 20:46:21 +0000,909,2386702016-09-22 20:46:22 +0000,937,2396072016-09-22 20:46:23 +0000,937,2405442016-09-22 20:46:24 +0000,922,2414662016-09-22 20:46:25 +0000,909,2423752016-09-22 20:46:26 +0000,909,2432842016-09-22 20:46:28 +0000,952,2442362016-09-22 20:46:29 +0000,967,2452032016-09-22 20:46:31 +0000,952,2461552016-09-22 20:46:32 +0000,952,2471072016-09-22 20:46:34 +0000,983,2480902016-09-22 20:46:35 +0000,983,2490732016-09-22 20:46:37 +0000,952,2500252016-09-22 20:46:38 +0000,922,2509472016-09-22 20:46:39 +0000,922,2518692016-09-22 20:46:39 +0000,922,2527912016-09-22 20:46:40 +0000,922,2537132016-09-22 20:46:41 +0000,967,2546802016-09-22 20:46:42 +0000,967,2556472016-09-22 20:46:43 +0000,967,2566142016-09-22 20:46:44 +0000,937,2575512016-09-22 20:46:45 +0000,937,2584882016-09-22 20:46:47 +0000,952,2594402016-09-22 20:46:48 +0000,967,2604072016-09-22 20:46:49 +0000,967,2613742016-09-22 20:46:50 +0000,967,2623412016-09-22 20:46:51 +0000,952,2632932016-09-22 20:46:52 +0000,922,2642152016-09-22 20:46:53 +0000,909,2651242016-09-22 20:46:54 +0000,909,2660332016-09-22 20:46:55 +0000,922,2669552016-09-22 20:46:55 +0000,922,2678772016-09-22 20:46:56 +0000,952,2688292016-09-22 20:46:56 +0000,967,2697962016-09-22 20:46:57 +0000,967,2707632016-09-22 20:46:58 +0000,967,2717302016-09-22 20:46:59 +0000,937,2726672016-09-22 20:47:00 +0000,937,2736042016-09-22 20:47:01 +0000,937,2745412016-09-22 20:47:02 +0000,952,2754932016-09-22 20:47:03 +0000,967,2764602016-09-22 20:47:04 +0000,967,2774272016-09-22 20:47:05 +0000,922,2783492016-09-22 20:47:06 +0000,909,2792582016-09-22 20:47:07 +0000,909,2801672016-09-22 20:47:08 +0000,922,2810892016-09-22 20:47:09 +0000,952,2820412016-09-22 20:47:10 +0000,967,2830082016-09-22 20:47:11 +0000,967,2839752016-09-22 20:47:12 +0000,922,2848972016-09-22 20:47:12 +0000,922,2858192016-09-22 20:47:13 +0000,882,2867012016-09-22 20:47:14 +0000,857,2875582016-09-22 20:47:15 +0000,833,2883912016-09-22 20:47:16 +0000,810,2892012016-09-22 20:47:17 +0000,779,2899802016-09-22 20:47:17 +0000,779,2907592016-09-22 20:47:18 +0000,769,2915282016-09-22 20:47:19 +0000,759,2922872016-09-22 20:47:20 +0000,759,2930462016-09-22 20:47:20 +0000,759,2938052016-09-22 20:47:21 +0000,759,2945642016-09-22 20:47:22 +0000,769,2953332016-09-22 20:47:23 +0000,822,2961552016-09-22 20:47:24 +0000,857,2970122016-09-22 20:47:24 +0000,857,2978692016-09-22 20:47:25 +0000,869,2987382016-09-22 20:47:26 +0000,869,2996072016-09-22 20:47:27 +0000,857,3004642016-09-22 20:47:28 +0000,857,3013212016-09-22 20:47:29 +0000,857,3021782016-09-22 20:47:30 +0000,869,3030472016-09-22 20:47:31 +0000,895,3039422016-09-22 20:47:31 +0000,895,3048372016-09-22 20:47:32 +0000,895,3057322016-09-22 20:47:33 +0000,895,3066272016-09-22 20:47:34 +0000,882,3075092016-09-22 20:47:35 +0000,882,3083912016-09-22 20:47:36 +0000,882,3092732016-09-22 20:47:37 +0000,909,3101822016-09-22 20:47:38 +0000,909,3110912016-09-22 20:47:39 +0000,909,3120002016-09-22 20:47:40 +0000,895,3128952016-09-22 20:47:40 +0000,895,3137902016-09-22 20:47:41 +0000,895,3146852016-09-22 20:47:42 +0000,895,3155802016-09-22 20:47:43 +0000,909,3164892016-09-22 20:47:44 +0000,922,3174112016-09-22 20:47:45 +0000,909,3183202016-09-22 20:47:46 +0000,895,3192152016-09-22 20:47:47 +0000,895,3201102016-09-22 20:47:48 +0000,895,3210052016-09-22 20:47:49 +0000,909,3219142016-09-22 20:47:49 +0000,909,3228232016-09-22 20:47:50 +0000,922,3237452016-09-22 20:47:51 +0000,922,3246672016-09-22 20:47:52 +0000,922,3255892016-09-22 20:47:53 +0000,909,3264982016-09-22 20:47:54 +0000,895,3273932016-09-22 20:47:55 +0000,895,3282882016-09-22 20:47:56 +0000,909,3291972016-09-22 20:47:57 +0000,909,3301062016-09-22 20:47:58 +0000,895,3310012016-09-22 20:47:59 +0000,869,3318702016-09-22 20:47:59 +0000,869,3327392016-09-22 20:48:00 +0000,869,3336082016-09-22 20:48:01 +0000,869,3344772016-09-22 20:48:02 +0000,882,3353592016-09-22 20:48:03 +0000,909,3362682016-09-22 20:48:04 +0000,922,3371902016-09-22 20:48:05 +0000,922,3381122016-09-22 20:48:06 +0000,909,3390212016-09-22 20:48:08 +0000,882,3399032016-09-22 20:48:08 +0000,882,3407852016-09-22 20:48:09 +0000,844,3416292016-09-22 20:48:11 +0000,779,3424082016-09-22 20:48:12 +0000,769,3431772016-09-22 20:48:12 +0000,769,3439462016-09-22 20:48:14 +0000,779,3447252016-09-22 20:48:15 +0000,779,3455042016-09-22 20:48:15 +0000,779,3462832016-09-22 20:48:16 +0000,799,3470822016-09-22 20:48:17 +0000,857,3479392016-09-22 20:48:18 +0000,882,3488212016-09-22 20:48:19 +0000,882,3497032016-09-22 20:48:20 +0000,882,3505852016-09-22 20:48:21 +0000,844,3514292016-09-22 20:48:21 +0000,844,3522732016-09-22 20:48:22 +0000,844,3531172016-09-22 20:48:23 +0000,844,3539612016-09-22 20:48:24 +0000,895,3548562016-09-22 20:48:25 +0000,937,3557932016-09-22 20:48:26 +0000,937,3567302016-09-22 20:48:27 +0000,937,3576672016-09-22 20:48:28 +0000,922,3585892016-09-22 20:48:29 +0000,922,3595112016-09-22 20:48:30 +0000,922,3604332016-09-22 20:48:31 +0000,952,3613852016-09-22 20:48:32 +0000,967,3623522016-09-22 20:48:33 +0000,967,3633192016-09-22 20:48:34 +0000,952,3642712016-09-22 20:48:34 +0000,952,3652232016-09-22 20:48:35 +0000,937,3661602016-09-22 20:48:36 +0000,922,3670822016-09-22 20:48:36 +0000,937,3680192016-09-22 20:48:37 +0000,952,3689712016-09-22 20:48:38 +0000,967,3699382016-09-22 20:48:39 +0000,967,3709052016-09-22 20:48:40 +0000,952,3718572016-09-22 20:48:41 +0000,922,3727792016-09-22 20:48:42 +0000,922,3737012016-09-22 20:48:43 +0000,937,3746382016-09-22 20:48:44 +0000,952,3755902016-09-22 20:48:45 +0000,952,3765422016-09-22 20:48:46 +0000,952,3774942016-09-22 20:48:47 +0000,922,3784162016-09-22 20:48:48 +0000,922,3793382016-09-22 20:48:48 +0000,922,3802602016-09-22 20:48:49 +0000,922,3811822016-09-22 20:48:50 +0000,937,3821192016-09-22 20:48:51 +0000,937,3830562016-09-22 20:48:52 +0000,937,3839932016-09-22 20:48:53 +0000,937,3849302016-09-22 20:48:54 +0000,895,3858252016-09-22 20:48:55 +0000,844,3866692016-09-22 20:48:56 +0000,810,3874792016-09-22 20:48:57 +0000,799,3882782016-09-22 20:48:57 +0000,799,3890772016-09-22 20:48:58 +0000,799,3898762016-09-22 20:48:59 +0000,810,3906862016-09-22 20:49:00 +0000,810,3914962016-09-22 20:49:01 +0000,822,3923182016-09-22 20:49:01 +0000,822,3931402016-09-22 20:49:02 +0000,833,3939732016-09-22 20:49:03 +0000,833,3948062016-09-22 20:49:04 +0000,844,3956502016-09-22 20:49:05 +0000,909,3965592016-09-22 20:49:06 +0000,937,3974962016-09-22 20:49:07 +0000,952,3984482016-09-22 20:49:08 +0000,937,3993852016-09-22 20:49:09 +0000,922,4003072016-09-22 20:49:09 +0000,922,4012292016-09-22 20:49:10 +0000,922,4021512016-09-22 20:49:11 +0000,922,4030732016-09-22 20:49:12 +0000,952,4040252016-09-22 20:49:13 +0000,1000,4050252016-09-22 20:49:14 +0000,1000,4060252016-09-22 20:49:15 +0000,1000,4070252016-09-22 20:49:16 +0000,967,4079922016-09-22 20:49:17 +0000,967,4089592016-09-22 20:49:18 +0000,967,4099262016-09-22 20:49:19 +0000,983,4109092016-09-22 20:49:20 +0000,967,4118762016-09-22 20:49:21 +0000,952,4128282016-09-22 20:49:22 +0000,952,4137802016-09-22 20:49:23 +0000,952,4147322016-09-22 20:49:24 +0000,967,4156992016-09-22 20:49:25 +0000,952,4166512016-09-22 20:49:26 +0000,952,4176032016-09-22 20:49:27 +0000,952,4185552016-09-22 20:49:28 +0000,952,4195072016-09-22 20:49:29 +0000,952,4204592016-09-22 20:49:30 +0000,952,4214112016-09-22 20:49:31 +0000,937,4223482016-09-22 20:49:32 +0000,922,4232702016-09-22 20:49:32 +0000,922,4241922016-09-22 20:49:33 +0000,922,4251142016-09-22 20:49:34 +0000,937,4260512016-09-22 20:49:35 +0000,952,4270032016-09-22 20:49:36 +0000,952,4279552016-09-22 20:49:37 +0000,937,4288922016-09-22 20:49:38 +0000,922,4298142016-09-22 20:49:39 +0000,922,4307362016-09-22 20:49:40 +0000,922,4316582016-09-22 20:49:41 +0000,937,4325952016-09-22 20:49:42 +0000,937,4335322016-09-22 20:49:43 +0000,937,4344692016-09-22 20:49:44 +0000,937,4354062016-09-22 20:49:45 +0000,937,4363432016-09-22 20:49:47 +0000,937,4372802016-09-22 20:49:47 +0000,937,4382172016-09-22 20:49:48 +0000,937,4391542016-09-22 20:49:50 +0000,909,4400632016-09-22 20:49:51 +0000,909,4409722016-09-22 20:49:53 +0000,895,4418672016-09-22 20:49:54 +0000,895,4427622016-09-22 20:49:55 +0000,895,4436572016-09-22 20:49:56 +0000,895,4445522016-09-22 20:49:57 +0000,895,4454472016-09-22 20:49:57 +0000,895,4463422016-09-22 20:49:58 +0000,895,4472372016-09-22 20:49:59 +0000,895,4481322016-09-22 20:50:00 +0000,895,4490272016-09-22 20:50:01 +0000,895,4499222016-09-22 20:50:02 +0000,895,4508172016-09-22 20:50:03 +0000,895,4517122016-09-22 20:50:04 +0000,895,4526072016-09-22 20:50:05 +0000,895,4535022016-09-22 20:50:05 +0000,895,4543972016-09-22 20:50:06 +0000,909,4553062016-09-22 20:50:07 +0000,922,4562282016-09-22 20:50:08 +0000,937,4571652016-09-22 20:50:09 +0000,937,4581022016-09-22 20:50:10 +0000,937,4590392016-09-22 20:50:11 +0000,922,4599612016-09-22 20:50:12 +0000,922,4608832016-09-22 20:50:13 +0000,909,4617922016-09-22 20:50:14 +0000,895,4626872016-09-22 20:50:15 +0000,895,4635822016-09-22 20:50:15 +0000,895,4644772016-09-22 20:50:15 +0000,895,4653722016-09-22 20:50:16 +0000,909,4662812016-09-22 20:50:17 +0000,909,4671902016-09-22 20:50:18 +0000,909,4680992016-09-22 20:50:19 +0000,895,4689942016-09-22 20:50:20 +0000,895,4698892016-09-22 20:50:21 +0000,909,4707982016-09-22 20:50:22 +0000,909,4717072016-09-22 20:50:23 +0000,922,4726292016-09-22 20:50:24 +0000,909,4735382016-09-22 20:50:25 +0000,909,4744472016-09-22 20:50:25 +0000,909,4753562016-09-22 20:50:26 +0000,909,4762652016-09-22 20:50:27 +0000,922,4771872016-09-22 20:50:28 +0000,922,4781092016-09-22 20:50:29 +0000,909,4790182016-09-22 20:50:30 +0000,895,4799132016-09-22 20:50:31 +0000,895,4808082016-09-22 20:50:32 +0000,895,4817032016-09-22 20:50:33 +0000,909,4826122016-09-22 20:50:34 +0000,922,4835342016-09-22 20:50:35 +0000,937,4844712016-09-22 20:50:36 +0000,952,4854232016-09-22 20:50:36 +0000,952,4863752016-09-22 20:50:37 +0000,952,487327