date, rr, since_start, window, lap2016-09-22 20:13:06 +0000,710,1403,1,02016-09-22 20:13:07 +0000,741,2144,1,02016-09-22 20:13:07 +0000,733,2877,1,02016-09-22 20:13:08 +0000,712,3589,1,02016-09-22 20:13:09 +0000,678,4267,1,02016-09-22 20:13:09 +0000,684,4951,1,02016-09-22 20:13:10 +0000,698,5649,1,02016-09-22 20:13:11 +0000,739,6388,1,02016-09-22 20:13:12 +0000,786,7174,1,02016-09-22 20:13:12 +0000,889,8063,1,02016-09-22 20:13:13 +0000,911,8974,1,02016-09-22 20:13:14 +0000,852,9826,1,02016-09-22 20:13:15 +0000,798,10624,1,02016-09-22 20:13:16 +0000,769,11393,2,02016-09-22 20:13:16 +0000,761,12154,2,02016-09-22 20:13:17 +0000,812,12966,2,02016-09-22 20:13:18 +0000,880,13846,2,02016-09-22 20:13:19 +0000,880,14726,2,02016-09-22 20:13:20 +0000,867,15593,2,02016-09-22 20:13:21 +0000,907,16500,2,02016-09-22 20:13:22 +0000,918,17418,2,02016-09-22 20:13:22 +0000,852,18270,2,02016-09-22 20:13:23 +0000,825,19095,2,02016-09-22 20:13:24 +0000,812,19907,2,02016-09-22 20:13:25 +0000,812,20719,2,02016-09-22 20:13:26 +0000,909,21628,3,02016-09-22 20:13:27 +0000,960,22588,3,02016-09-22 20:13:28 +0000,939,23527,3,02016-09-22 20:13:28 +0000,941,24468,3,02016-09-22 20:13:29 +0000,970,25438,3,02016-09-22 20:13:30 +0000,958,26396,3,02016-09-22 20:13:31 +0000,888,27284,3,02016-09-22 20:13:32 +0000,841,28125,3,02016-09-22 20:13:33 +0000,814,28939,3,02016-09-22 20:13:34 +0000,791,29730,3,02016-09-22 20:13:34 +0000,810,30540,3,02016-09-22 20:13:35 +0000,871,31411,3,02016-09-22 20:13:36 +0000,874,32285,4,02016-09-22 20:13:37 +0000,880,33165,4,02016-09-22 20:13:38 +0000,913,34078,4,02016-09-22 20:13:39 +0000,943,35021,4,02016-09-22 20:13:40 +0000,876,35897,4,02016-09-22 20:13:40 +0000,853,36750,4,02016-09-22 20:13:41 +0000,833,37583,4,02016-09-22 20:13:42 +0000,819,38402,4,02016-09-22 20:13:43 +0000,872,39274,4,02016-09-22 20:13:44 +0000,883,40157,4,02016-09-22 20:13:45 +0000,832,40989,4,02016-09-22 20:13:45 +0000,821,41810,4,02016-09-22 20:13:46 +0000,815,42625,5,02016-09-22 20:13:47 +0000,832,43457,5,02016-09-22 20:13:48 +0000,847,44304,5,02016-09-22 20:13:49 +0000,834,45138,5,02016-09-22 20:13:49 +0000,848,45986,5,02016-09-22 20:13:50 +0000,888,46874,5,02016-09-22 20:13:51 +0000,888,47762,5,02016-09-22 20:13:52 +0000,825,48587,5,02016-09-22 20:13:53 +0000,784,49371,5,02016-09-22 20:13:53 +0000,773,50144,5,02016-09-22 20:13:54 +0000,793,50937,5,02016-09-22 20:13:55 +0000,793,51730,5,02016-09-22 20:13:56 +0000,773,52503,6,02016-09-22 20:13:56 +0000,765,53268,6,02016-09-22 20:13:57 +0000,786,54054,6,02016-09-22 20:13:58 +0000,807,54861,6,02016-09-22 20:13:59 +0000,879,55740,6,02016-09-22 20:14:00 +0000,847,56587,6,02016-09-22 20:14:01 +0000,816,57403,6,02016-09-22 20:14:01 +0000,817,58220,6,02016-09-22 20:14:02 +0000,850,59070,6,02016-09-22 20:14:03 +0000,861,59931,6,02016-09-22 20:14:04 +0000,828,60759,6,02016-09-22 20:14:05 +0000,814,61573,6,02016-09-22 20:14:05 +0000,829,62402,6,02016-09-22 20:14:06 +0000,855,63257,7,02016-09-22 20:14:07 +0000,825,64082,7,02016-09-22 20:14:08 +0000,781,64863,7,02016-09-22 20:14:09 +0000,775,65638,7,02016-09-22 20:14:09 +0000,798,66436,7,02016-09-22 20:14:10 +0000,802,67238,7,02016-09-22 20:14:11 +0000,759,67997,7,02016-09-22 20:14:12 +0000,710,68707,7,02016-09-22 20:14:12 +0000,699,69406,7,02016-09-22 20:14:13 +0000,709,70115,7,02016-09-22 20:14:14 +0000,725,70840,7,02016-09-22 20:14:14 +0000,751,71591,7,02016-09-22 20:14:15 +0000,793,72384,7,02016-09-22 20:14:16 +0000,811,73195,8,02016-09-22 20:14:17 +0000,790,73985,8,02016-09-22 20:14:17 +0000,788,74773,8,02016-09-22 20:14:18 +0000,827,75600,8,02016-09-22 20:14:19 +0000,894,76494,8,02016-09-22 20:14:20 +0000,927,77421,8,02016-09-22 20:14:21 +0000,905,78326,8,02016-09-22 20:14:22 +0000,856,79182,8,02016-09-22 20:14:23 +0000,818,80000,8,02016-09-22 20:14:23 +0000,831,80831,8,02016-09-22 20:14:24 +0000,878,81709,8,02016-09-22 20:14:25 +0000,869,82578,8,02016-09-22 20:14:26 +0000,817,83395,9,02016-09-22 20:14:27 +0000,787,84182,9,02016-09-22 20:14:27 +0000,818,85000,9,02016-09-22 20:14:28 +0000,1005,86005,9,02016-09-22 20:14:29 +0000,1002,87007,9,02016-09-22 20:14:30 +0000,929,87936,9,02016-09-22 20:14:31 +0000,937,88873,9,02016-09-22 20:14:32 +0000,938,89811,9,02016-09-22 20:14:33 +0000,946,90757,9,02016-09-22 20:14:34 +0000,923,91680,9,02016-09-22 20:14:35 +0000,895,92575,9,02016-09-22 20:14:36 +0000,883,93458,10,02016-09-22 20:14:37 +0000,871,94329,10,02016-09-22 20:14:37 +0000,873,95202,10,02016-09-22 20:14:38 +0000,891,96093,10,02016-09-22 20:14:39 +0000,833,96926,10,02016-09-22 20:14:40 +0000,787,97713,10,02016-09-22 20:14:41 +0000,799,98512,10,02016-09-22 20:14:42 +0000,920,99432,10,02016-09-22 20:14:43 +0000,1040,100472,10,02016-09-22 20:14:44 +0000,1007,101479,10,02016-09-22 20:14:44 +0000,931,102410,10,02016-09-22 20:14:45 +0000,909,103319,10,02016-09-22 20:14:46 +0000,937,104256,11,02016-09-22 20:14:47 +0000,950,105206,11,02016-09-22 20:14:48 +0000,910,106116,11,02016-09-22 20:14:49 +0000,855,106971,11,02016-09-22 20:14:50 +0000,823,107794,11,02016-09-22 20:14:50 +0000,797,108591,11,02016-09-22 20:14:51 +0000,836,109427,11,02016-09-22 20:14:52 +0000,942,110369,11,02016-09-22 20:14:53 +0000,891,111260,11,02016-09-22 20:14:54 +0000,814,112074,11,02016-09-22 20:14:55 +0000,759,112833,11,02016-09-22 20:14:55 +0000,757,113590,11,02016-09-22 20:14:56 +0000,770,114360,12,02016-09-22 20:14:57 +0000,827,115187,12,02016-09-22 20:14:58 +0000,935,116122,12,02016-09-22 20:14:59 +0000,937,117059,12,02016-09-22 20:15:00 +0000,888,117947,12,02016-09-22 20:15:00 +0000,818,118765,12,02016-09-22 20:15:01 +0000,786,119551,12,02016-09-22 20:15:02 +0000,799,120350,12,02016-09-22 20:15:03 +0000,863,121213,12,02016-09-22 20:15:04 +0000,902,122115,12,02016-09-22 20:15:04 +0000,864,122979,12,02016-09-22 20:15:05 +0000,775,123754,12,02016-09-22 20:15:06 +0000,716,124470,13,02016-09-22 20:15:07 +0000,700,125170,13,02016-09-22 20:15:07 +0000,731,125901,13,02016-09-22 20:15:08 +0000,858,126759,13,02016-09-22 20:15:09 +0000,884,127643,13,02016-09-22 20:15:10 +0000,901,128544,13,02016-09-22 20:15:11 +0000,891,129435,13,02016-09-22 20:15:12 +0000,826,130261,13,02016-09-22 20:15:12 +0000,767,131028,13,02016-09-22 20:15:13 +0000,711,131739,13,02016-09-22 20:15:14 +0000,677,132416,13,02016-09-22 20:15:14 +0000,669,133085,13,02016-09-22 20:15:15 +0000,659,133744,13,02016-09-22 20:15:16 +0000,661,134405,14,02016-09-22 20:15:16 +0000,713,135118,14,02016-09-22 20:15:17 +0000,860,135978,14,02016-09-22 20:15:18 +0000,898,136876,14,02016-09-22 20:15:19 +0000,927,137803,14,02016-09-22 20:15:20 +0000,942,138745,14,02016-09-22 20:15:21 +0000,929,139674,14,02016-09-22 20:15:22 +0000,873,140547,14,02016-09-22 20:15:22 +0000,771,141318,14,02016-09-22 20:15:23 +0000,719,142037,14,02016-09-22 20:15:24 +0000,685,142722,14,02016-09-22 20:15:24 +0000,672,143394,14,02016-09-22 20:15:25 +0000,683,144077,14,02016-09-22 20:15:26 +0000,732,144809,15,02016-09-22 20:15:27 +0000,770,145579,15,02016-09-22 20:15:27 +0000,824,146403,15,02016-09-22 20:15:28 +0000,867,147270,15,02016-09-22 20:15:29 +0000,848,148118,15,02016-09-22 20:15:30 +0000,807,148925,15,02016-09-22 20:15:31 +0000,761,149686,15,02016-09-22 20:15:31 +0000,706,150392,15,02016-09-22 20:15:32 +0000,684,151076,15,02016-09-22 20:15:33 +0000,665,151741,15,02016-09-22 20:15:33 +0000,659,152400,15,02016-09-22 20:15:34 +0000,682,153082,15,02016-09-22 20:15:35 +0000,815,153897,15,02016-09-22 20:15:35 +0000,827,154724,15,02016-09-22 20:15:36 +0000,827,155551,16,02016-09-22 20:15:37 +0000,813,156364,16,02016-09-22 20:15:38 +0000,792,157156,16,02016-09-22 20:15:39 +0000,775,157931,16,02016-09-22 20:15:39 +0000,757,158688,16,02016-09-22 20:15:40 +0000,743,159431,16,02016-09-22 20:15:41 +0000,704,160135,16,02016-09-22 20:15:41 +0000,687,160822,16,02016-09-22 20:15:42 +0000,671,161493,16,02016-09-22 20:15:43 +0000,665,162158,16,02016-09-22 20:15:43 +0000,714,162872,16,02016-09-22 20:15:44 +0000,888,163760,16,02016-09-22 20:15:45 +0000,936,164696,16,02016-09-22 20:15:46 +0000,931,165627,17,02016-09-22 20:15:47 +0000,906,166533,17,02016-09-22 20:15:48 +0000,841,167374,17,02016-09-22 20:15:49 +0000,774,168148,17,02016-09-22 20:15:49 +0000,729,168877,17,02016-09-22 20:15:50 +0000,688,169565,17,02016-09-22 20:15:51 +0000,664,170229,17,02016-09-22 20:15:51 +0000,660,170889,17,02016-09-22 20:15:52 +0000,657,171546,17,02016-09-22 20:15:52 +0000,659,172205,17,02016-09-22 20:15:53 +0000,712,172917,17,02016-09-22 20:15:54 +0000,929,173846,17,02016-09-22 20:15:55 +0000,911,174757,17,02016-09-22 20:15:56 +0000,877,175634,18,02016-09-22 20:15:57 +0000,825,176459,18,02016-09-22 20:15:57 +0000,771,177230,18,02016-09-22 20:15:58 +0000,737,177967,18,02016-09-22 20:15:59 +0000,714,178681,18,02016-09-22 20:15:59 +0000,697,179378,18,02016-09-22 20:16:00 +0000,669,180047,18,02016-09-22 20:16:01 +0000,647,180694,18,02016-09-22 20:16:01 +0000,642,181336,18,02016-09-22 20:16:02 +0000,639,181975,18,02016-09-22 20:16:03 +0000,661,182636,18,02016-09-22 20:16:03 +0000,710,183346,18,02016-09-22 20:16:04 +0000,908,184254,18,02016-09-22 20:16:05 +0000,905,185159,18,02016-09-22 20:16:06 +0000,908,186067,19,02016-09-22 20:16:07 +0000,914,186981,19,02016-09-22 20:16:08 +0000,893,187874,19,02016-09-22 20:16:09 +0000,827,188701,19,02016-09-22 20:16:09 +0000,762,189463,19,02016-09-22 20:16:10 +0000,717,190180,19,02016-09-22 20:16:11 +0000,683,190863,19,02016-09-22 20:16:11 +0000,671,191534,19,02016-09-22 20:16:12 +0000,659,192193,19,02016-09-22 20:16:13 +0000,657,192850,19,02016-09-22 20:16:13 +0000,688,193538,19,02016-09-22 20:16:14 +0000,747,194285,19,02016-09-22 20:16:15 +0000,756,195041,19,02016-09-22 20:16:15 +0000,749,195790,19,02016-09-22 20:16:16 +0000,747,196537,20,02016-09-22 20:16:17 +0000,751,197288,20,02016-09-22 20:16:18 +0000,748,198036,20,02016-09-22 20:16:18 +0000,740,198776,20,02016-09-22 20:16:19 +0000,734,199510,20,02016-09-22 20:16:20 +0000,722,200232,20,02016-09-22 20:16:20 +0000,696,200928,20,02016-09-22 20:16:22 +0000,690,201618,20,02016-09-22 20:16:22 +0000,681,202299,20,02016-09-22 20:16:22 +0000,674,202973,20,02016-09-22 20:16:23 +0000,689,203662,20,02016-09-22 20:16:24 +0000,715,204377,20,02016-09-22 20:16:25 +0000,785,205162,20,02016-09-22 20:16:25 +0000,835,205997,20,02016-09-22 20:16:26 +0000,810,206807,21,02016-09-22 20:16:27 +0000,793,207600,21,02016-09-22 20:16:28 +0000,775,208375,21,02016-09-22 20:16:28 +0000,757,209132,21,02016-09-22 20:16:30 +0000,734,209866,21,02016-09-22 20:16:30 +0000,707,210573,21,02016-09-22 20:16:31 +0000,663,211236,21,02016-09-22 20:16:31 +0000,663,211899,21,02016-09-22 20:16:32 +0000,657,212556,21,02016-09-22 20:16:32 +0000,661,213217,21,02016-09-22 20:16:33 +0000,688,213905,21,02016-09-22 20:16:34 +0000,740,214645,21,02016-09-22 20:16:35 +0000,817,215462,21,02016-09-22 20:16:35 +0000,855,216317,21,02016-09-22 20:16:36 +0000,862,217179,22,02016-09-22 20:16:37 +0000,845,218024,22,02016-09-22 20:16:38 +0000,801,218825,22,02016-09-22 20:16:39 +0000,759,219584,22,02016-09-22 20:16:39 +0000,712,220296,22,02016-09-22 20:16:40 +0000,694,220990,22,02016-09-22 20:16:41 +0000,680,221670,22,02016-09-22 20:16:41 +0000,670,222340,22,02016-09-22 20:16:42 +0000,676,223016,22,02016-09-22 20:16:43 +0000,733,223749,22,02016-09-22 20:16:44 +0000,859,224608,22,02016-09-22 20:16:44 +0000,925,225533,22,02016-09-22 20:16:45 +0000,913,226446,22,02016-09-22 20:16:46 +0000,892,227338,23,02016-09-22 20:16:47 +0000,865,228203,23,02016-09-22 20:16:48 +0000,831,229034,23,02016-09-22 20:16:49 +0000,772,229806,23,02016-09-22 20:16:49 +0000,746,230552,23,02016-09-22 20:16:50 +0000,711,231263,23,02016-09-22 20:16:51 +0000,698,231961,23,02016-09-22 20:16:51 +0000,690,232651,23,02016-09-22 20:16:52 +0000,687,233338,23,02016-09-22 20:16:53 +0000,716,234054,23,02016-09-22 20:16:54 +0000,796,234850,23,02016-09-22 20:16:54 +0000,908,235758,23,02016-09-22 20:16:55 +0000,912,236670,23,02016-09-22 20:16:56 +0000,917,237587,24,02016-09-22 20:16:57 +0000,897,238484,24,02016-09-22 20:16:58 +0000,852,239336,24,02016-09-22 20:16:59 +0000,809,240145,24,02016-09-22 20:16:59 +0000,764,240909,24,02016-09-22 20:17:00 +0000,723,241632,24,02016-09-22 20:17:01 +0000,708,242340,24,02016-09-22 20:17:02 +0000,694,243034,24,02016-09-22 20:17:02 +0000,685,243719,24,02016-09-22 20:17:03 +0000,696,244415,24,02016-09-22 20:17:04 +0000,742,245157,24,02016-09-22 20:17:04 +0000,837,245994,24,02016-09-22 20:17:05 +0000,887,246881,24,02016-09-22 20:17:06 +0000,897,247778,25,02016-09-22 20:17:07 +0000,874,248652,25,02016-09-22 20:17:08 +0000,833,249485,25,02016-09-22 20:17:09 +0000,788,250273,25,02016-09-22 20:17:09 +0000,742,251015,25,02016-09-22 20:17:10 +0000,710,251725,25,02016-09-22 20:17:11 +0000,699,252424,25,02016-09-22 20:17:11 +0000,695,253119,25,02016-09-22 20:17:12 +0000,702,253821,25,02016-09-22 20:17:13 +0000,735,254556,25,02016-09-22 20:17:14 +0000,769,255325,25,02016-09-22 20:17:14 +0000,873,256198,25,02016-09-22 20:17:15 +0000,917,257115,25,02016-09-22 20:17:16 +0000,824,257939,26,02016-09-22 20:17:17 +0000,757,258696,26,02016-09-22 20:17:18 +0000,734,259430,26,02016-09-22 20:17:18 +0000,738,260168,26,02016-09-22 20:17:19 +0000,751,260919,26,02016-09-22 20:17:20 +0000,766,261685,26,02016-09-22 20:17:20 +0000,783,262468,26,02016-09-22 20:17:21 +0000,794,263262,26,02016-09-22 20:17:22 +0000,796,264058,26,02016-09-22 20:17:23 +0000,783,264841,26,02016-09-22 20:17:24 +0000,781,265622,26,02016-09-22 20:17:24 +0000,790,266412,26,02016-09-22 20:17:25 +0000,826,267238,26,02016-09-22 20:17:26 +0000,913,268151,27,02016-09-22 20:17:27 +0000,917,269068,27,02016-09-22 20:17:28 +0000,888,269956,27,02016-09-22 20:17:29 +0000,836,270792,27,02016-09-22 20:17:29 +0000,788,271580,27,02016-09-22 20:17:30 +0000,764,272344,27,02016-09-22 20:17:31 +0000,779,273123,27,02016-09-22 20:17:32 +0000,811,273934,27,02016-09-22 20:17:32 +0000,845,274779,27,02016-09-22 20:17:33 +0000,865,275644,27,02016-09-22 20:17:34 +0000,856,276500,27,02016-09-22 20:17:35 +0000,817,277317,27,02016-09-22 20:17:36 +0000,790,278107,28,02016-09-22 20:17:36 +0000,778,278885,28,02016-09-22 20:17:37 +0000,776,279661,28,02016-09-22 20:17:38 +0000,802,280463,28,02016-09-22 20:17:39 +0000,843,281306,28,02016-09-22 20:17:40 +0000,852,282158,28,02016-09-22 20:17:41 +0000,846,283004,28,02016-09-22 20:17:41 +0000,813,283817,28,02016-09-22 20:17:42 +0000,814,284631,28,02016-09-22 20:17:43 +0000,800,285431,28,02016-09-22 20:17:44 +0000,807,286238,28,02016-09-22 20:17:44 +0000,792,287030,28,02016-09-22 20:17:45 +0000,765,287795,28,02016-09-22 20:17:46 +0000,755,288550,29,02016-09-22 20:17:47 +0000,726,289276,29,02016-09-22 20:17:47 +0000,750,290026,29,02016-09-22 20:17:48 +0000,773,290799,29,02016-09-22 20:17:49 +0000,850,291649,29,02016-09-22 20:17:50 +0000,955,292604,29,02016-09-22 20:17:51 +0000,956,293560,29,02016-09-22 20:17:52 +0000,914,294474,29,02016-09-22 20:17:53 +0000,870,295344,29,02016-09-22 20:17:53 +0000,842,296186,29,02016-09-22 20:17:54 +0000,813,296999,29,02016-09-22 20:17:55 +0000,797,297796,29,02016-09-22 20:17:56 +0000,787,298583,30,02016-09-22 20:17:56 +0000,774,299357,30,02016-09-22 20:17:57 +0000,777,300134,30,02016-09-22 20:17:58 +0000,756,300890,30,02016-09-22 20:17:59 +0000,771,301661,30,02016-09-22 20:17:59 +0000,760,302421,30,02016-09-22 20:18:00 +0000,783,303204,30,02016-09-22 20:18:01 +0000,795,303999,30,02016-09-22 20:18:02 +0000,836,304835,30,02016-09-22 20:18:03 +0000,816,305651,30,02016-09-22 20:18:03 +0000,784,306435,30,02016-09-22 20:18:04 +0000,771,307206,30,02016-09-22 20:18:05 +0000,767,307973,30,02016-09-22 20:18:06 +0000,778,308751,31,02016-09-22 20:18:06 +0000,815,309566,31,02016-09-22 20:18:07 +0000,867,310433,31,02016-09-22 20:18:08 +0000,857,311290,31,02016-09-22 20:18:09 +0000,819,312109,31,02016-09-22 20:18:10 +0000,764,312873,31,02016-09-22 20:18:10 +0000,760,313633,31,02016-09-22 20:18:11 +0000,754,314387,31,02016-09-22 20:18:12 +0000,779,315166,31,02016-09-22 20:18:13 +0000,813,315979,31,02016-09-22 20:18:13 +0000,838,316817,31,02016-09-22 20:18:14 +0000,848,317665,31,02016-09-22 20:18:15 +0000,824,318489,31,02016-09-22 20:18:16 +0000,822,319311,32,02016-09-22 20:18:17 +0000,829,320140,32,02016-09-22 20:18:18 +0000,843,320983,32,02016-09-22 20:18:18 +0000,814,321797,32,02016-09-22 20:18:19 +0000,780,322577,32,02016-09-22 20:18:20 +0000,776,323353,32,02016-09-22 20:18:21 +0000,793,324146,32,02016-09-22 20:18:21 +0000,828,324974,32,02016-09-22 20:18:22 +0000,895,325869,32,02016-09-22 20:18:23 +0000,889,326758,32,02016-09-22 20:18:24 +0000,839,327597,32,02016-09-22 20:18:25 +0000,779,328376,32,02016-09-22 20:18:26 +0000,775,329151,33,02016-09-22 20:18:26 +0000,784,329935,33,02016-09-22 20:18:27 +0000,836,330771,33,02016-09-22 20:18:28 +0000,894,331665,33,02016-09-22 20:18:29 +0000,836,332501,33,02016-09-22 20:18:30 +0000,800,333301,33,02016-09-22 20:18:30 +0000,775,334076,33,02016-09-22 20:18:31 +0000,776,334852,33,02016-09-22 20:18:32 +0000,821,335673,33,02016-09-22 20:18:33 +0000,838,336511,33,02016-09-22 20:18:33 +0000,821,337332,33,02016-09-22 20:18:34 +0000,799,338131,33,02016-09-22 20:18:35 +0000,802,338933,33,02016-09-22 20:18:36 +0000,831,339764,34,02016-09-22 20:18:37 +0000,836,340600,34,02016-09-22 20:18:37 +0000,811,341411,34,02016-09-22 20:18:38 +0000,780,342191,34,02016-09-22 20:18:39 +0000,767,342958,34,02016-09-22 20:18:40 +0000,783,343741,34,02016-09-22 20:18:41 +0000,809,344550,34,02016-09-22 20:18:41 +0000,812,345362,34,02016-09-22 20:18:42 +0000,794,346156,34,02016-09-22 20:18:43 +0000,786,346942,34,02016-09-22 20:18:44 +0000,794,347736,34,02016-09-22 20:18:44 +0000,807,348543,34,02016-09-22 20:18:45 +0000,822,349365,34,02016-09-22 20:18:46 +0000,790,350155,35,02016-09-22 20:18:47 +0000,769,350924,35,02016-09-22 20:18:47 +0000,772,351696,35,02016-09-22 20:18:48 +0000,765,352461,35,02016-09-22 20:18:49 +0000,749,353210,35,02016-09-22 20:18:50 +0000,727,353937,35,02016-09-22 20:18:50 +0000,718,354655,35,02016-09-22 20:18:51 +0000,720,355375,35,02016-09-22 20:18:52 +0000,723,356098,35,02016-09-22 20:18:52 +0000,723,356821,35,02016-09-22 20:18:53 +0000,736,357557,35,02016-09-22 20:18:54 +0000,748,358305,35,02016-09-22 20:18:55 +0000,791,359096,35,02016-09-22 20:18:55 +0000,793,359889,35,02016-09-22 20:18:56 +0000,775,360664,36,02016-09-22 20:18:57 +0000,761,361425,36,02016-09-22 20:18:58 +0000,760,362185,36,02016-09-22 20:18:58 +0000,773,362958,36,02016-09-22 20:18:59 +0000,809,363767,36,02016-09-22 20:19:00 +0000,834,364601,36,02016-09-22 20:19:01 +0000,816,365417,36,02016-09-22 20:19:02 +0000,812,366229,36,02016-09-22 20:19:02 +0000,825,367054,36,02016-09-22 20:19:03 +0000,849,367903,36,02016-09-22 20:19:04 +0000,862,368765,36,02016-09-22 20:19:05 +0000,832,369597,36,02016-09-22 20:19:06 +0000,823,370420,37,0